position;dPos;Intensity;dInt
-3.6571374999999997;0.00450079486150734;0.00895392156862745;0.0014544508928520247
-3.6501699999999997;0.004495260403121286;0.0075490196078431375;0.0020627103056286913
-3.6432049999999996;0.004509755946295135;0.008236274509803921;0.0024513902925216505
-3.6362399999999995;0.004505580557998087;0.006242156862745098;0.0020730958770502584
-3.6292699999999996;0.0045136789038635605;0.005425490196078431;0.0033363830723762604
-3.6223075;0.004531406855630784;0.006666666666666667;0.0026742606212863044
-3.6153399999999998;0.004535676566698251;0.008530392156862746;0.001484106926476986
-3.6083749999999997;0.004559754915077465;0.009150980392156862;0.0008283952113390222
-3.6014099999999996;0.004565325039867627;0.007418627450980392;0.0018170409548502818
-3.5944399999999996;0.004582986763835258;0.008694117647058824;0.0024385304713957683
-3.5874775;0.004610049580083893;0.008463725490196078;0.0016741913949311375
-3.58051;0.004623826670324963;0.007483333333333333;0.0022514802114122923
-3.5735449999999997;0.004656956775587368;0.008855882352941175;0.0014370770026058742
-3.5665799999999996;0.004671888762413086;0.00823529411764706;0.0011091871077436026
-3.5596099999999997;0.004698579938820092;0.008137254901960784;0.0019607843137254893
-3.5526474999999995;0.004734330100879418;0.009378431372549019;0.0029998983279793845
-3.5456799999999995;0.004757057869146475;0.009574509803921568;0.0024015331085175382
-3.538715;0.004798493854064243;0.011439215686274509;0.0018670401120373472
-3.5317499999999997;0.004822168789120526;0.012254901960784312;0.0020172573415043345
-3.5247824999999997;0.0048643118627982726;0.009445098039215685;0.0018784764004591292
-3.5178174999999996;0.00490077761289384;0.008333333333333333;0.0027450980392156863
-3.5108499999999996;0.004931717895145222;0.008202941176470588;0.0010543770105757256
-3.5038849999999995;0.004980587862791185;0.00931470588235294;0.002062296479459569
-3.49692;0.0050122344704594405;0.006993137254901961;0.0015164170591126164
-3.4899525;0.005061542706980989;0.008792156862745096;0.0007509232217696784
-3.4829874999999997;0.0051052694592623755;0.007941176470588236;0.0015010133703681114
-3.4760199999999997;0.005143588101497829;0.00895392156862745;0.0021072937420513996
-3.4690549999999996;0.0051989790328641015;0.009346078431372548;0.0011575360840940356
-3.46209;0.00523775641631441;0.010130392156862745;0.0023648706301881706
-3.4551225;0.005293327364173889;0.011405882352941175;0.0014225369701700915
-3.4481574999999998;0.0053434395875690465;0.009378431372549019;0.0004937440230756763
-3.4411899999999997;0.005388280899519965;0.007972549019607842;0.001921168425712297
-3.4342249999999996;0.005449305078909186;0.006666666666666666;0.00047828134366828534
-3.4272599999999995;0.005494370346100719;0.0077764705882352935;0.00347820514918956
-3.4202924999999995;0.005555342467185888;0.008266666666666667;0.0021598315871710206
-3.4133299999999998;0.005604766371538093;0.008462745098039216;0.0019607843137254897
-3.40636;0.005661542093818659;0.009508823529411764;0.0013899310200223421
-3.3993949999999997;0.0057273802070036805;0.008954901960784314;0.0020305951524305535
-3.3924299999999996;0.005777935103241157;0.008431372549019607;0.001180437755617204
-3.3854624999999996;0.0058435229617768225;0.007647058823529411;0.0028816743676807408
-3.3785;0.0058980314822732385;0.006665686274509804;0.0014789167213596446
-3.37153;0.005959443098286662;0.005293137254901961;0.0008682740247957874
-3.364565;0.0060293662653563024;0.00588235294117647;0.0005651777258951451
-3.3575999999999997;0.006084683882348276;0.007025490196078432;0.0010548655143496214
-3.3506324999999997;0.0061541942295961416;0.008855882352941177;0.002566023726500243
-3.3436699999999995;0.006213095845545541;0.008104901960784314;0.004458979883554978
-3.3366999999999996;0.0062784775652255055;0.010949019607843136;0.0009869064621268971
-3.3297349999999994;0.006351853778366082;0.010000980392156862;0.002383104053303905
-3.32277;0.0064112898212948435;0.007483333333333333;0.0011757448742083546
-3.3158024999999998;0.00648412430171283;0.009248039215686274;0.0019619173197146693
-3.3088399999999996;0.006546812960492438;0.008855882352941177;0.002511913941472843
-3.3018699999999996;0.006615588739186438;0.005980392156862745;0.0018385759161540615
-3.2949075;0.006690118314270783;0.005785294117647059;0.0016992463520067965
-3.28794;0.006754873183921058;0.004607843137254902;0.0014996466754618862
-3.2809725;0.006830523013519449;0.007483333333333334;0.0018900536924648056
-3.2740099999999996;0.00689647556561286;0.010849999999999999;0.002921484404628887
-3.2670399999999997;0.006968153523620755;0.010719607843137254;0.0010235118822529143
-3.2600774999999995;0.007045230360386189;0.009280392156862745;0.0014338647834967915
-3.2531099999999995;0.007112974175600544;0.007155882352941175;0.004391262163775178
-3.2461424999999995;0.0071910108225521205;0.0056215686274509805;0.0008283952113390212
-3.2391799999999997;0.007259780013761174;0.0075490196078431375;0.003973197399809715
-3.23221;0.007333943552082549;0.011242156862745097;0.0017066394533585849
-3.2252474999999996;0.007413182443226373;0.009706862745098039;0.0006533345887362492
-3.2182799999999996;0.0074835089930026565;0.008692156862745097;0.0020305951524305513
-3.2113124999999996;0.007563573493765503;0.010392156862745097;0.002053134998435151
-3.20435;0.007634779093268127;0.0077127450980392165;0.001188131749840419
-3.19738;0.007711076958194982;0.00633921568627451;0.0020316047006921417
-3.1904174999999997;0.007792155823384191;0.008757843137254901;0.0010662508801320117
-3.1834499999999997;0.007864720427811184;0.008138235294117646;0.0014392156862745083
-3.1764824999999997;0.00794651286255861;0.006110784313725489;0.001994053700429053
-3.1695199999999994;0.008019832485251142;0.008659803921568628;0.0005399199203963999
-3.1625499999999995;0.008097969067548064;0.008463725490196078;0.001750822658654548
-3.1555874999999998;0.008180618934342751;0.008300980392156862;0.0018668575175682072
-3.1486199999999998;0.008255129514465318;0.008561764705882352;0.0006232662740688309
-3.1416549999999996;0.008339764029877166;0.009705882352941175;0.002015223364357718
-3.1346899999999995;0.008413559871639465;0.009215686274509804;0.0028994866683423313
-3.1277199999999996;0.008493286379041483;0.007058823529411764;0.0006403894752374326
-3.1207575;0.008577282509958583;0.0076794117647058825;0.0009159668434141125
-3.11379;0.008653491464562126;0.006699019607843137;0.0007497857355521458
-3.1068249999999997;0.00873932981785729;0.007516666666666667;0.0022347975597986646
-3.0998599999999996;0.008814799014698043;0.00722156862745098;0.0018027219654415303
-3.0928899999999997;0.008895905763189367;0.008365686274509804;0.003931143213691321
-3.0859274999999995;0.00898106005413859;0.007319607843137255;0.0019460307694069657
-3.0789599999999995;0.009058757149167334;0.007058823529411765;0.0012807789504748637
-3.071995;0.009145628605527;0.007581372549019609;0.0011098039215686278
-3.0650299999999997;0.009222569542110747;0.006861764705882352;0.0026526612221798207
-3.0580624999999997;0.009308594434826985;0.006438235294117647;0.004055983345267935
-3.0510974999999996;0.009391033993662949;0.005849019607843137;0.00137265359078773
-3.0441299999999996;0.00947004028405464;0.006568627450980392;0.0014846819204706607
-3.037165;0.009557801779115579;0.00803921568627451;0.0037614364888727218
-3.0302;0.00963604231945372;0.008104901960784313;0.0021549212890234408
-3.0232324999999998;0.00972296020228741;0.00892156862745098;0.001135477538322922
-3.0162674999999997;0.0098064272075975;0.010817647058823529;0.002031493674941278
-3.0092999999999996;0.009886589918133178;0.011502941176470589;0.0011881317498404185
-3.0023349999999995;0.009975121174260604;0.00993529411764706;0.0023296846300429087
-2.9953699999999994;0.010054513888757834;0.009607843137254901;0.002344017938249475
-2.9884024999999994;0.010142208594390289;0.010261764705882352;0.002263062244853305
-2.9814374999999997;0.010226579341078403;0.010098039215686274;0.0021164654171160016
-2.9744699999999997;0.010307767593942672;0.009966666666666665;0.001177925026884416
-2.9675049999999996;0.010396967123502299;0.008888235294117646;0.0016141562652189011
-2.96054;0.010477385305019224;0.01042549019607843;0.00032931838078771787
-2.9535725;0.01056575840073356;0.012058823529411764;0.002118402189256778
-2.9466075;0.010650927226984654;0.01127549019607843;0.001116710994317203
-2.93964;0.010733028494596682;0.01104607843137255;0.0012546302810488928
-2.9326749999999997;0.010822810338672705;0.011665686274509804;0.0010534041897726756
-2.9257099999999996;0.01090414469154408;0.010882352941176471;0.003213702560462449
-2.9187424999999996;0.01099311244947976;0.010948039215686274;0.0005399199203963999
-2.9117799999999994;0.01107581186071105;0.009019607843137255;0.002648836972364341
-2.9048099999999994;0.011161905925718987;0.007973529411764706;0.002249885867212206
-2.897845;0.011252196995265454;0.007450980392156863;0.0010901302467545538
-2.8908799999999997;0.011334352888988063;0.006927450980392156;0.0016141562652189011
-2.8839124999999997;0.011423843810418137;0.009837254901960784;0.002761441543873541
-2.87695;0.01150729043089889;0.01111078431372549;0.0018977839724666989
-2.8699799999999995;0.0115939985534355;0.011666666666666665;0.004265926502504766
-2.863015;0.011684736460328369;0.011110784313725489;0.003094038121197739
-2.8560499999999998;0.0117676316522817;0.009869607843137255;0.0020207547983724936
-2.8490824999999997;0.011857584442728504;0.00888921568627451;0.0015845256442750038
-2.8421199999999995;0.011941703106422206;0.007320588235294118;0.0007717257814723148
-2.8351499999999996;0.012028959903217546;0.0066990196078431374;0.0013403640087759903
-2.8281849999999995;0.012120091188109165;0.008137254901960784;0.004697329919068511
-2.8212199999999994;0.01220365393352088;0.009640196078431373;0.0048116539077750695
-2.8142525;0.012294015843561188;0.007648039215686275;0.0011398820230744315
-2.8072899999999996;0.012378740987535762;0.007679411764705881;0.000940029257249716
-2.8003199999999997;0.012466489705729274;0.008040196078431374;0.0029699395309726834
-2.7933575;0.012557011793062102;0.006764705882352942;0.0016026122466373132
-2.78639;0.01264213586733605;0.003822549019607843;0.0020953400265803206
-2.7794225;0.012732861329674394;0.004836274509803921;0.0011315588704881843
-2.7724599999999997;0.012818135555717508;0.006960784313725489;0.003418978175523481
-2.76549;0.01290632674879182;0.010227450980392157;0.0018532610299029837
-2.7585274999999996;0.012997187709035145;0.008790196078431373;0.002312803627139826
-2.7515599999999996;0.013082830144159048;0.0056215686274509805;0.0016090669660848915
-2.7445924999999995;0.013173879650785803;0.007319607843137255;0.001638252210830935
-2.7376299999999993;0.013259652527373707;0.007484313725490196;0.0005408732692362815
-2.7306599999999994;0.013348242957175746;0.00784313725490196;0.0016685679274806879
-2.7236974999999997;0.013439406491745607;0.008365686274509804;0.0011898563114001635
-2.7167299999999996;0.013525520515208857;0.009607843137254901;0.001781365085002042
-2.7097624999999996;0.013616859689361036;0.008822549019607842;0.0013074516077175222
-2.7028;0.013703086750886218;0.01418235294117647;0.004665379072106995
-2.69583;0.013792038474231858;0.012254901960784314;0.0019385828054548067
-2.6888674999999997;0.01388347293333125;0.012483333333333332;0.000893621580081032
-2.6818999999999997;0.013970017221444007;0.011371568627450979;0.00320216109904176
-2.6749349999999996;0.014062410168475321;0.015326470588235296;0.004612126503081917
-2.6679699999999995;0.014148257956074535;0.017451960784313728;0.005686439934488039
-2.6609999999999996;0.014237537562348346;0.01496764705882353;0.0019144579654697784
-2.6540374999999994;0.014329215256405268;0.016405882352941173;0.0024279503641245048
-2.6470699999999994;0.014416153178335616;0.013170588235294118;0.0024555700817738076
-2.6401049999999997;0.014508753957691738;0.015325490196078432;0.0009869064621268967
-2.6331399999999996;0.01459500720159558;0.016111764705882353;0.00300596868760555
-2.6261699999999997;0.014684585174173396;0.014084313725490197;0.0028172297187980255
-2.6192075;0.014776481799533276;0.012843137254901962;0.003553088340457383
-2.61224;0.014863780780431214;0.012615686274509805;0.001358471221622648
-2.605275;0.014956567734507764;0.012974509803921567;0.001230706284927101
-2.5983099999999997;0.015043193895290779;0.013266666666666666;0.0010125446656751402
-2.5913399999999998;0.015133044074789291;0.013757843137254902;0.001853906792695236
-2.5843774999999996;0.015225138232974065;0.014738235294117647;0.0009159668434141114
-2.5774099999999995;0.015312769215588834;0.014542156862745098;0.003105706570585178
-2.5704449999999994;0.01540572331059763;0.01516372549019608;0.0015253288890975008
-2.5634799999999993;0.015492693286245906;0.01385686274509804;0.003800184135242066
-2.5565124999999997;0.015584996377923292;0.013530392156862747;0.004581284607299809
-2.5495474999999996;0.015675065211605523;0.018986274509803922;0.000753199846634945
-2.5425799999999996;0.015763002199604633;0.01918235294117647;0.0014367220298137672
-2.535615;0.01585610665901784;0.017155882352941174;0.003983090620767517
-2.52865;0.015943394346429204;0.01026078431372549;0.005439291553631609
-2.5216825;0.01603586269097744;0.009117647058823529;0.003803870358795517
-2.5147174999999997;0.016126156389440354;0.008594117647058823;0.0018038590497833603
-2.5077499999999997;0.016214376058710445;0.008595098039215687;0.0006866628219807785
-2.5007849999999996;0.016307616054325492;0.007287254901960784;0.0011971579827569068
-2.4938199999999995;0.016395197975123673;0.008399019607843138;0.0038659977679131787
-2.4868524999999995;0.01648781634181947;0.01241764705882353;0.0019087957505926243
-2.4798874999999994;0.01657831673418566;0.012711764705882353;0.003087477653717813
-2.4729199999999993;0.016666798100880474;0.011666666666666667;0.0007196336659005937
-2.4659549999999997;0.01676016049153852;0.009869607843137255;0.0003371864955704455
-2.45899;0.016848015471708715;0.011698039215686275;0.0023529411764705885
-2.4520225;0.01694077030518228;0.00980392156862745;0.0032790067356395594
-2.44506;0.017029382192721897;0.00993529411764706;0.0034208098864712913
-2.43809;0.017120185227719645;0.010262745098039216;0.0023529411764705885
-2.4311249999999998;0.017213658337571623;0.010228431372549019;0.0017919165754734137
-2.4241599999999996;0.01730176723228179;0.00980392156862745;0.001966412836563999
-2.4171924999999996;0.017394646437280864;0.010098039215686274;0.0016430452186930997
-2.4102299999999994;0.01748348714130347;0.008040196078431372;0.0017145628441406727
-2.4032599999999995;0.01757446274743653;0.0069598039215686275;0.001288096509669893
-2.3962949999999994;0.017668036177143645;0.006665686274509804;0.0003697313467137885
-2.3893299999999993;0.017756381633623183;0.007580392156862745;0.0027913930070670103
-2.3823624999999997;0.017849374391186865;0.006634313725490196;0.002899468104496307
-2.3754;0.017938428100258422;0.006175490196078431;0.0003925945270155628
-2.3684299999999996;0.01802956335645225;0.005685294117647059;0.0010788876040301652
-2.361465;0.018123227821907204;0.005687254901960785;0.0007838789644688896
-2.3545;0.018211794074482847;0.005816666666666667;0.0015016194427738064
-2.3475325;0.018304890684437143;0.006045098039215687;0.0011779250268844177
-2.3405699999999996;0.01839414303874594;0.0057519607843137255;0.0003697313467137885
-2.3335999999999997;0.018485426262905166;0.009215686274509803;0.005854536409095392
-2.3266374999999995;0.01857851544110125;0.010064705882352941;0.0006382566284598278
-2.3196699999999995;0.018667946149417546;0.009574509803921568;0.0030901330407292556
-2.3127024999999994;0.01876113789500298;0.007320588235294118;0.0007690641683169924
-2.3057399999999992;0.018850575823704616;0.00797450980392157;0.0010235118822529143
-2.2987699999999993;0.018941996429942924;0.009477450980392156;0.0016746322527974441
-2.2918075;0.01903517583935521;0.012745098039215686;0.002431608675019501
-2.2848399999999995;0.019124784934671197;0.01052156862745098;0.0013584712216226497
-2.2778725;0.019218063965840297;0.011404901960784313;0.0013061021621125885
-2.2709099999999998;0.01930767554560404;0.01182941176470588;0.001816319995563769
-2.26394;0.019399223920464538;0.013137254901960783;0.0014246183199112077
-2.2569774999999996;0.01949248618849822;0.012091176470588235;0.0010993899255411573
-2.2500099999999996;0.01958226236906722;0.013953921568627452;0.0016717400674930198
-2.2430424999999996;0.019675621601581667;0.013104901960784312;0.00296761882693624
-2.2360799999999994;0.01976539593322336;0.014870588235294118;0.0016169041669088868
-2.2291099999999995;0.019857063328054415;0.015425490196078431;0.0023862092568454297
-2.2221474999999997;0.01995040179334994;0.015066666666666667;0.0024279968132034937
-2.2151799999999993;0.020040334715723505;0.01722156862745098;0.002481321224126581
-2.2082149999999996;0.020134311806038658;0.014705882352941176;0.0017417887400216128
-2.20125;0.020223694844254732;0.012254901960784314;0.0012683592164224975
-2.1942799999999996;0.020315473281370823;0.01326764705882353;0.0013745624820912582
-2.1873175;0.02040888191344879;0.01607843137254902;0.0012996751336510567
-2.18035;0.02049896209272965;0.015784313725490193;0.001176470588235291
-2.1733849999999997;0.020592994285152565;0.015490196078431374;0.0013748104619286158
-2.1664199999999996;0.020682533820682532;0.017581372549019605;0.0008682740247957848
-2.1594499999999996;0.020774416011322835;0.017844117647058823;0.0010788876040301626
-2.1524874999999994;0.02086788934060606;0.021176470588235297;0.0018592150934759494
-2.1455199999999994;0.020958108062842616;0.01866078431372549;0.0023688655033386463
-2.1385549999999998;0.021052190638685356;0.020750980392156865;0.0026936999609621162
-2.1315899999999997;0.02114187769966293;0.019313725490196082;0.00265918211475175
-2.1246199999999993;0.021233856972076665;0.02826764705882353;0.004880038299536881
-2.1176575;0.02132739002879043;0.03032647058823529;0.002291327279052659
-2.11069;0.021417739273837867;0.029182352941176472;0.003995868685445804
-2.1037249999999994;0.021511867958884066;0.0254578431372549;0.0020391892909302272
-2.0967599999999997;0.021601694272094026;0.025881372549019607;0.0017727731363897682
-2.08979;0.021693764508341973;0.02872450980392157;0.001995595560326469
-2.0828274999999996;0.0217873527690311;0.027090196078431373;0.0022527696653090287
-2.0758599999999996;0.02187782514246087;0.024215686274509804;0.0009376622846425103
-2.0688949999999995;0.021971996058780408;0.02601372549019608;0.003487233816712892
-2.0619299999999994;0.02206195398227959;0.028398039215686274;0.00216062417114121
-2.0549624999999994;0.022155649523306346;0.026862745098039216;0.001517993238793638
-2.0479974999999997;0.02224774890315759;0.025425490196078433;0.003459487434986345
-2.0410299999999997;0.022338337576009896;0.02702549019607843;0.002501985370830084
-2.0340649999999996;0.0224325471997129;0.02238529411764706;0.0038337747769154056
-2.0271;0.022522629663099092;0.018104901960784313;0.0003371864955704451
-2.0201325;0.022616373302198827;0.020129411764705882;0.005082933881104204
-2.0131674999999998;0.022708552071133523;0.018823529411764704;0.0030388353124821653
-2.0061999999999998;0.02279925072648543;0.015424509803921568;0.006841153335279913
-1.9992349999999997;0.02289349585059743;0.013071568627450979;0.0025729186327814084
-1.9922699999999998;0.022983696301937348;0.01758235294117647;0.0010798398407928008
-1.9853024999999997;0.023077484529795037;0.01607843137254902;0.0025501495735785204
-1.9783374999999996;0.023169737987523767;0.013300980392156863;0.002263189091135
-1.9713699999999996;0.023260540772995886;0.012809803921568629;0.004033607376279282
-1.9644049999999997;0.023354818474759818;0.012123529411764707;0.0017260189326565227
-1.9574399999999996;0.02344513083332982;0.010883333333333332;0.0016992463520067965
-1.9504724999999996;0.023538960436585373;0.010751960784313726;0.0028289517650883457
-1.9435099999999998;0.023629776314284808;0.008005882352941177;0.0012702412178424351
